Data from FLMS055041_15-15-12-043.txt Node
Date: Tue May 21 15:15:12 CEST 2019
User: bregeon
Spectrometer: FLMS05504
Trigger mode: 0
Integration Time (sec): 1.000000E-3
Scans to average: 1
Electric dark correction enabled: true
Nonlinearity correction enabled: false
Boxcar width: 0
XAxis mode: Wavelengths
Number of Pixels in Spectrum: 2048
>>>>>Begin Spectral Data<<<<<
185.883	-40.14
186.359	-40.14
186.834	-40.14
187.309	-71.06
187.785	-101.97
188.26	-159.06
188.735	-106.73
189.21	-73.43
189.685	-178.08
190.16	-13.97
190.635	-33
191.11	2.68
191.584	0.3
192.059	9.81
192.534	-92.46
193.008	83.54
193.483	104.95
193.957	47.87
194.431	138.25
194.906	152.52
195.38	116.84
195.854	195.33
196.328	109.7
196.802	440.31
197.276	965.94
197.75	1070.59
198.224	1201.4
198.697	1134.8
199.171	1156.21
199.645	1291.78
200.118	1472.54
200.592	1289.4
201.065	1655.68
201.538	1577.19
202.012	1610.49
202.485	1810.28
202.958	1891.14
203.431	2036.23
203.904	2100.44
204.377	2212.23
204.85	2269.31
205.323	2271.69
205.796	2326.39
206.268	2338.28
206.741	2409.64
207.214	2528.56
207.686	2604.67
208.158	2680.78
208.631	3042.3
209.103	3311.06
209.575	3869.99
210.047	4711.95
210.52	5710.89
210.992	6876.31
211.464	7744.43
211.935	9054.94
212.407	10322.64
212.879	12087.43
213.351	15295.92
213.822	19279.77
214.294	24519.43
214.766	30115.86
215.237	37305.82
215.708	45368.67
216.18	52675.18
216.651	57933.87
217.122	61803.56
217.593	65059.61
218.064	65133.34
218.535	65133.34
219.006	65133.34
219.477	65133.34
219.948	65133.34
220.418	65133.34
220.889	65133.34
221.36	65133.34
221.83	65133.34
222.301	65133.34
222.771	65133.34
223.241	65133.34
223.712	65133.34
224.182	65133.34
224.652	65133.34
225.122	65133.34
225.592	65133.34
226.062	65133.34
226.532	65133.34
227.002	65133.34
227.471	65133.34
227.941	65133.34
228.411	65133.34
228.88	65133.34
229.35	65133.34
229.819	65133.34
230.288	65133.34
230.758	65133.34
231.227	65133.34
231.696	65133.34
232.165	65133.34
232.634	65133.34
233.103	65133.34
233.572	65133.34
234.041	65133.34
234.51	65133.34
234.978	65133.34
235.447	65133.34
235.915	65133.34
236.384	65133.34
236.852	65133.34
237.321	65133.34
237.789	65133.34
238.257	65133.34
238.725	65133.34
239.193	65133.34
239.661	65133.34
240.129	65133.34
240.597	65133.34
241.065	65133.34
241.533	65133.34
242.001	65133.34
242.468	65133.34
242.936	65133.34
243.403	65133.34
243.871	65133.34
244.338	65133.34
244.805	65133.34
245.273	65133.34
245.74	65133.34
246.207	65133.34
246.674	65133.34
247.141	65133.34
247.608	65133.34
248.075	65133.34
248.542	65133.34
249.008	65133.34
249.475	65133.34
249.942	65133.34
250.408	65133.34
250.874	65133.34
251.341	65133.34
251.807	65133.34
252.273	65133.34
252.74	65133.34
253.206	65133.34
253.672	65133.34
254.138	65133.34
254.604	65133.34
255.07	65133.34
255.535	65133.34
256.001	65133.34
256.467	65133.34
256.932	65133.34
257.398	65133.34
257.863	65133.34
258.329	65133.34
258.794	65133.34
259.259	65133.34
259.725	65133.34
260.19	65133.34
260.655	65133.34
261.12	65133.34
261.585	65133.34
262.05	65133.34
262.515	65133.34
262.979	65133.34
263.444	65133.34
263.909	65133.34
264.373	65133.34
264.838	65133.34
265.302	65133.34
265.766	65133.34
266.231	65133.34
266.695	65133.34
267.159	65133.34
267.623	65133.34
268.087	65133.34
268.551	65133.34
269.015	65133.34
269.479	65133.34
269.943	65133.34
270.406	65133.34
270.87	65133.34
271.334	65133.34
271.797	65133.34
272.261	65133.34
272.724	65133.34
273.187	65133.34
273.651	65133.34
274.114	65133.34
274.577	65133.34
275.04	65133.34
275.503	65133.34
275.966	65133.34
276.429	65133.34
276.891	65133.34
277.354	65133.34
277.817	65133.34
278.279	65133.34
278.742	65133.34
279.204	65133.34
279.667	65133.34
280.129	65133.34
280.591	65133.34
281.054	65133.34
281.516	65133.34
281.978	65133.34
282.44	65133.34
282.902	65133.34
283.364	65133.34
283.825	65133.34
284.287	65133.34
284.749	65133.34
285.21	65133.34
285.672	65133.34
286.133	65133.34
286.595	65133.34
287.056	65133.34
287.518	65133.34
287.979	65133.34
288.44	65133.34
288.901	65133.34
289.362	65133.34
289.823	65133.34
290.284	65133.34
290.745	65133.34
291.205	65133.34
291.666	65133.34
292.127	65133.34
292.587	65133.34
293.048	65133.34
293.508	65133.34
293.969	65133.34
294.429	65133.34
294.889	65133.34
295.349	65133.34
295.809	65133.34
296.27	65133.34
296.729	65133.34
297.189	65133.34
297.649	65133.34
298.109	65133.34
298.569	65133.34
299.028	65133.34
299.488	65133.34
299.948	65133.34
300.407	65133.34
300.866	65133.34
301.326	65133.34
301.785	65133.34
302.244	65133.34
302.703	65133.34
303.162	65133.34
303.621	65133.34
304.08	65133.34
304.539	65133.34
304.998	65133.34
305.457	65133.34
305.915	65133.34
306.374	65133.34
306.832	65133.34
307.291	65133.34
307.749	65133.34
308.208	65133.34
308.666	65133.34
309.124	65133.34
309.582	65133.34
310.04	65133.34
310.498	65133.34
310.956	65133.34
311.414	65133.34
311.872	65133.34
312.33	65133.34
312.788	65133.34
313.245	65133.34
313.703	65133.34
314.16	65133.34
314.618	65133.34
315.075	65133.34
315.532	65133.34
315.99	65133.34
316.447	65133.34
316.904	65133.34
317.361	65133.34
317.818	65133.34
318.275	65133.34
318.732	65133.34
319.188	65133.34
319.645	65133.34
320.102	65133.34
320.558	65133.34
321.015	65133.34
321.471	65133.34
321.928	65133.34
322.384	65133.34
322.84	65133.34
323.297	65133.34
323.753	65133.34
324.209	65133.34
324.665	65133.34
325.121	65133.34
325.577	65133.34
326.032	65133.34
326.488	65133.34
326.944	65133.34
327.399	65133.34
327.855	65133.34
328.31	65133.34
328.766	65133.34
329.221	65133.34
329.676	65133.34
330.132	65133.34
330.587	65133.34
331.042	65133.34
331.497	65133.34
331.952	65133.34
332.407	65133.34
332.862	65133.34
333.316	65133.34
333.771	65133.34
334.226	65133.34
334.68	65133.34
335.135	65133.34
335.589	65133.34
336.044	65133.34
336.498	65133.34
336.952	65133.34
337.406	65133.34
337.86	65133.34
338.314	65133.34
338.768	65133.34
339.222	65133.34
339.676	65133.34
340.13	65133.34
340.584	65133.34
341.037	65133.34
341.491	65133.34
341.944	65133.34
342.398	65133.34
342.851	65133.34
343.305	65133.34
343.758	65133.34
344.211	65133.34
344.664	65133.34
345.117	65133.34
345.57	65133.34
346.023	65133.34
346.476	65133.34
346.929	65133.34
347.382	65133.34
347.834	65133.34
348.287	65133.34
348.739	65133.34
349.192	65133.34
349.644	65133.34
350.097	65133.34
350.549	65133.34
351.001	65133.34
351.453	65133.34
351.905	65133.34
352.357	65133.34
352.809	65133.34
353.261	65133.34
353.713	65133.34
354.165	65133.34
354.617	65133.34
355.068	65133.34
355.52	65133.34
355.971	65133.34
356.423	65133.34
356.874	65133.34
357.325	65133.34
357.777	65133.34
358.228	65133.34
358.679	65133.34
359.13	65133.34
359.581	65133.34
360.032	65133.34
360.483	65133.34
360.934	65133.34
361.384	65133.34
361.835	65133.34
362.286	65133.34
362.736	65133.34
363.187	65133.34
363.637	65133.34
364.087	65133.34
364.538	65133.34
364.988	65133.34
365.438	65133.34
365.888	65133.34
366.338	65133.34
366.788	65133.34
367.238	65133.34
367.688	65133.34
368.137	65133.34
368.587	65133.34
369.037	65133.34
369.486	65133.34
369.936	65133.34
370.385	65133.34
370.835	65133.34
371.284	65133.34
371.733	65133.34
372.182	65133.34
372.631	65133.34
373.08	65133.34
373.529	65133.34
373.978	65133.34
374.427	65133.34
374.876	65133.34
375.325	65133.34
375.773	65133.34
376.222	65133.34
376.67	65133.34
377.119	65133.34
377.567	65133.34
378.016	65133.34
378.464	65133.34
378.912	65133.34
379.36	65133.34
379.808	65133.34
380.256	65133.34
380.704	65133.34
381.152	65133.34
381.6	65133.34
382.048	65133.34
382.495	65133.34
382.943	65133.34
383.39	65133.34
383.838	65133.34
384.285	65133.34
384.733	65133.34
385.18	65133.34
385.627	65133.34
386.074	65133.34
386.521	65133.34
386.968	65133.34
387.415	65133.34
387.862	65133.34
388.309	65133.34
388.756	65133.34
389.203	65133.34
389.649	65133.34
390.096	65133.34
390.542	65133.34
390.989	65133.34
391.435	65133.34
391.881	65133.34
392.328	65133.34
392.774	65133.34
393.22	65133.34
393.666	65133.34
394.112	65133.34
394.558	65133.34
395.004	65133.34
395.45	65133.34
395.895	65133.34
396.341	65133.34
396.787	65133.34
397.232	65133.34
397.678	65133.34
398.123	65133.34
398.568	65133.34
399.014	65133.34
399.459	65133.34
399.904	65133.34
400.349	65133.34
400.794	65133.34
401.239	65133.34
401.684	64593.44
402.129	64755.18
402.573	64393.66
403.018	64279.49
403.463	64474.52
403.907	64305.65
404.352	64415.06
404.796	64567.28
405.241	63577.86
405.685	62880.98
406.129	61767.88
406.573	61494.36
407.017	60985.38
407.461	60823.65
407.905	60980.62
408.349	60604.83
408.793	60405.04
409.237	59812.82
409.681	59104.05
410.124	59025.56
410.568	58371.49
411.011	58124.14
411.455	58224.03
411.898	58454.74
412.342	58690.2
412.785	58849.56
413.228	58540.36
413.671	58347.71
414.114	58590.31
414.557	58033.76
415	58226.41
415.443	58951.83
415.886	58875.72
416.329	58754.42
416.771	59565.46
417.214	58937.56
417.657	59448.92
418.099	59915.09
418.541	60181.47
418.984	60345.58
419.426	61392.09
419.868	61637.07
420.311	63278.18
420.753	63663.48
421.195	63822.83
421.637	63180.66
422.079	62888.12
422.52	61943.88
422.962	61551.44
423.404	60828.4
423.846	60797.48
424.287	60141.04
424.729	59674.87
425.17	58516.58
425.612	57179.91
426.053	57303.58
426.494	56323.67
426.935	56085.83
427.376	55091.65
427.817	55113.06
428.258	54875.22
428.699	55836.1
429.14	56035.89
429.581	54378.13
430.022	52425.44
430.463	48853.06
430.903	43863.13
431.344	40000.57
431.784	36306.89
432.225	34641.99
432.665	33117.43
433.105	30988.74
433.545	27906.31
433.986	24616.95
434.426	21724.79
434.866	20278.71
435.306	18114.35
435.746	16639.73
436.185	15072.35
436.625	13840.33
437.065	12798.58
437.505	11782.99
437.944	11155.09
438.384	10636.59
438.823	10348.81
439.263	9837.44
439.702	9944.47
440.141	10149.02
440.58	10631.84
441.019	10596.16
441.459	10061.02
441.898	9942.1
442.336	9868.36
442.775	9197.65
443.214	8959.81
443.653	8041.74
444.092	7316.32
444.53	6526.68
444.969	5796.51
445.407	5349.37
445.846	4528.81
446.284	3862.85
446.722	3401.44
447.16	2778.29
447.599	2316.88
448.037	2088.55
448.475	1727.03
448.913	1591.46
449.351	1260.86
449.788	1272.75
450.226	1125.29
450.664	982.58
451.102	851.77
451.539	735.23
451.977	621.07
452.414	509.28
452.852	418.9
453.289	349.93
453.726	181.06
454.163	266.68
454.6	254.79
455.037	166.79
455.474	64.51
455.911	109.7
456.348	-18.73
456.785	121.6
457.222	21.7
457.658	-2.08
458.095	40.73
458.532	-9.22
458.968	-11.59
459.405	-23.49
459.841	-2.08
460.277	-132.89
460.713	-128.14
461.15	-173.33
461.586	-78.19
462.022	-125.76
462.458	-61.54
462.894	-111.49
463.329	-121
463.765	-220.9
464.201	-125.76
464.637	-54.41
465.072	-37.76
465.508	-13.97
465.943	-63.92
466.378	-106.73
466.814	-104.35
467.249	-132.89
467.684	-111.49
468.119	-52.03
468.554	-97.22
468.989	-151.92
469.424	-161.44
469.859	-209
470.294	-230.41
470.729	-239.92
471.163	-218.52
471.598	-175.71
472.033	-318.41
472.467	-301.76
472.902	-225.65
473.336	-308.9
473.77	-244.68
474.204	-230.41
474.639	-304.14
475.073	-289.87
475.507	-335.06
475.941	-342.2
476.375	-301.76
476.808	-365.98
477.242	-349.33
477.676	-387.39
478.11	-313.65
478.543	-346.95
478.977	-349.33
479.41	-361.22
479.843	-323.17
480.277	-323.17
480.71	-268.46
481.143	-318.41
481.576	-337.44
482.009	-280.36
482.442	-380.25
482.875	-211.38
483.308	-249.44
483.741	-225.65
484.174	-197.11
484.606	0.3
485.039	93.06
485.472	16.95
485.904	-132.89
486.337	-194.73
486.769	-213.76
487.201	-277.98
487.633	-225.65
488.066	-304.14
488.498	-354.09
488.93	-354.09
489.362	-387.39
489.794	-401.66
490.225	-370.74
490.657	-396.9
491.089	-396.9
491.521	-375.49
491.952	-401.66
492.384	-401.66
492.815	-394.52
493.247	-401.66
493.678	-377.87
494.109	-401.66
494.54	-401.66
494.971	-401.66
495.403	-401.66
495.834	-365.98
496.265	-401.66
496.695	-401.66
497.126	-313.65
497.557	-377.87
497.988	-373.11
498.418	-401.66
498.849	-394.52
499.279	-356.47
499.71	-332.68
500.14	-401.66
500.57	-380.25
501.001	-401.66
501.431	-354.09
501.861	-332.68
502.291	-401.66
502.721	-342.2
503.151	-361.22
503.581	-401.66
504.011	-380.25
504.44	-354.09
504.87	-401.66
505.299	-380.25
505.729	-256.57
506.158	-342.2
506.588	-401.66
507.017	-389.76
507.446	-389.76
507.876	-385.01
508.305	-323.17
508.734	-385.01
509.163	-385.01
509.592	-401.66
510.021	-377.87
510.45	-401.66
510.878	-382.63
511.307	-401.66
511.736	-401.66
512.164	-401.66
512.593	-401.66
513.021	-401.66
513.45	-401.66
513.878	-401.66
514.306	-401.66
514.734	-401.66
515.162	-380.25
515.59	-401.66
516.018	-401.66
516.446	-401.66
516.874	-401.66
517.302	-401.66
517.73	-401.66
518.157	-401.66
518.585	-401.66
519.013	-396.9
519.44	-401.66
519.867	-401.66
520.295	-401.66
520.722	-401.66
521.149	-401.66
521.576	-401.66
522.004	-401.66
522.431	-401.66
522.858	-401.66
523.284	-401.66
523.711	-401.66
524.138	-401.66
524.565	-401.66
524.991	-401.66
525.418	-401.66
525.844	-401.66
526.271	-401.66
526.697	-401.66
527.124	-401.66
527.55	-401.66
527.976	-401.66
528.402	-401.66
528.828	-401.66
529.254	-401.66
529.68	-401.66
530.106	-401.66
530.532	-401.66
530.958	-401.66
531.383	-401.66
531.809	-401.66
532.234	-401.66
532.66	-401.66
533.085	-401.66
533.511	-401.66
533.936	-401.66
534.361	-401.66
534.786	-401.66
535.211	-401.66
535.637	-401.66
536.061	-401.66
536.486	-401.66
536.911	-401.66
537.336	-401.66
537.761	-401.66
538.185	-401.66
538.61	-401.66
539.034	-401.66
539.459	-401.66
539.883	-401.66
540.308	-401.66
540.732	-401.66
541.156	-401.66
541.58	-401.66
542.004	-401.66
542.428	-401.66
542.852	-401.66
543.276	-401.66
543.7	-401.66
544.124	-401.66
544.547	-401.66
544.971	-401.66
545.395	-401.66
545.818	-401.66
546.242	-401.66
546.665	-401.66
547.088	-401.66
547.512	-401.66
547.935	-401.66
548.358	-401.66
548.781	-401.66
549.204	-401.66
549.627	-401.66
550.05	-401.66
550.472	-401.66
550.895	-401.66
551.318	-401.66
551.74	-401.66
552.163	-401.66
552.585	-401.66
553.008	-401.66
553.43	-401.66
553.852	-401.66
554.275	-401.66
554.697	-401.66
555.119	-401.66
555.541	-401.66
555.963	-401.66
556.385	-401.66
556.807	-401.66
557.228	-401.66
557.65	-401.66
558.072	-401.66
558.493	-401.66
558.915	-401.66
559.336	-401.66
559.758	-401.66
560.179	-401.66
560.6	-401.66
561.021	-401.66
561.443	-401.66
561.864	-401.66
562.285	-401.66
562.706	-401.66
563.126	-401.66
563.547	-401.66
563.968	-401.66
564.389	-401.66
564.809	-401.66
565.23	-401.66
565.65	-401.66
566.071	-401.66
566.491	-401.66
566.911	-401.66
567.332	-401.66
567.752	-401.66
568.172	-401.66
568.592	-401.66
569.012	-401.66
569.432	-401.66
569.852	-401.66
570.272	-401.66
570.691	-401.66
571.111	-401.66
571.531	-401.66
571.95	-401.66
572.37	-401.66
572.789	-401.66
573.208	-401.66
573.628	-401.66
574.047	-401.66
574.466	-401.66
574.885	-401.66
575.304	-401.66
575.723	-401.66
576.142	-401.66
576.561	-401.66
576.98	-401.66
577.398	-401.66
577.817	-401.66
578.235	-401.66
578.654	-401.66
579.072	-401.66
579.491	-401.66
579.909	-401.66
580.327	-401.66
580.746	-401.66
581.164	-401.66
581.582	-401.66
582	-401.66
582.418	-401.66
582.836	-401.66
583.253	-401.66
583.671	-401.66
584.089	-401.66
584.506	-401.66
584.924	-401.66
585.341	-401.66
585.759	-401.66
586.176	-401.66
586.593	-401.66
587.011	-401.66
587.428	-401.66
587.845	-401.66
588.262	-401.66
588.679	-401.66
589.096	-401.66
589.513	-401.66
589.93	-401.66
590.346	-401.66
590.763	-401.66
591.18	-401.66
591.596	-401.66
592.013	-401.66
592.429	-401.66
592.845	-401.66
593.262	-401.66
593.678	-401.66
594.094	-401.66
594.51	-401.66
594.926	-401.66
595.342	-401.66
595.758	-401.66
596.174	-401.66
596.589	-401.66
597.005	-401.66
597.421	-401.66
597.836	-401.66
598.252	-401.66
598.667	-401.66
599.083	-401.66
599.498	-401.66
599.913	-401.66
600.329	-401.66
600.744	-401.66
601.159	-401.66
601.574	-401.66
601.989	-401.66
602.404	-401.66
602.818	-401.66
603.233	-401.66
603.648	-401.66
604.062	-401.66
604.477	-401.66
604.891	-401.66
605.306	-401.66
605.72	-401.66
606.134	-401.66
606.549	-401.66
606.963	-401.66
607.377	-401.66
607.791	-401.66
608.205	-401.66
608.619	-401.66
609.033	-401.66
609.447	-401.66
609.86	-401.66
610.274	-401.66
610.688	-401.66
611.101	-401.66
611.515	-401.66
611.928	-401.66
612.341	-401.66
612.755	-401.66
613.168	-401.66
613.581	-401.66
613.994	-401.66
614.407	-401.66
614.82	-401.66
615.233	-401.66
615.646	-401.66
616.059	-401.66
616.471	-401.66
616.884	-401.66
617.297	-401.66
617.709	-401.66
618.121	-401.66
618.534	-401.66
618.946	-401.66
619.358	-401.66
619.771	-401.66
620.183	-401.66
620.595	-401.66
621.007	-401.66
621.419	-401.66
621.831	-401.66
622.243	-401.66
622.654	-401.66
623.066	-401.66
623.478	-401.66
623.889	-401.66
624.301	-401.66
624.712	-401.66
625.123	-401.66
625.535	-401.66
625.946	-401.66
626.357	-401.66
626.768	-401.66
627.179	-401.66
627.59	-401.66
628.001	-401.66
628.412	-401.66
628.823	-401.66
629.234	-401.66
629.644	-401.66
630.055	-401.66
630.465	-401.66
630.876	-401.66
631.286	-401.66
631.697	-401.66
632.107	-401.66
632.517	-401.66
632.927	-401.66
633.337	-401.66
633.748	-401.66
634.158	-401.66
634.567	-401.66
634.977	-401.66
635.387	-401.66
635.797	-401.66
636.206	-401.66
636.616	-401.66
637.026	-401.66
637.435	-401.66
637.844	-401.66
638.254	-401.66
638.663	-401.66
639.072	-401.66
639.481	-401.66
639.89	-401.66
640.299	-401.66
640.708	-401.66
641.117	-401.66
641.526	-401.66
641.935	-401.66
642.344	-401.66
642.752	-401.66
643.161	-401.66
643.569	-401.66
643.978	-401.66
644.386	-401.66
644.794	-401.66
645.203	-401.66
645.611	-401.66
646.019	-401.66
646.427	-401.66
646.835	-401.66
647.243	-401.66
647.651	-401.66
648.059	-401.66
648.466	-401.66
648.874	-401.66
649.282	-401.66
649.689	-401.66
650.097	-401.66
650.504	-401.66
650.912	-401.66
651.319	-401.66
651.726	-401.66
652.133	-401.66
652.54	-401.66
652.948	-401.66
653.355	-401.66
653.761	-401.66
654.168	-401.66
654.575	-282.73
654.982	-118.62
655.388	-99.6
655.795	-292.25
656.202	-356.47
656.608	-385.01
657.015	-401.66
657.421	-401.66
657.827	-401.66
658.233	-401.66
658.64	-401.66
659.046	-401.66
659.452	-401.66
659.858	-401.66
660.264	-401.66
660.669	-401.66
661.075	-401.66
661.481	-401.66
661.887	-401.66
662.292	-401.66
662.698	-401.66
663.103	-401.66
663.509	-401.66
663.914	-401.66
664.319	-401.66
664.724	-401.66
665.13	-401.66
665.535	-401.66
665.94	-401.66
666.345	-401.66
666.749	-401.66
667.154	-401.66
667.559	-401.66
667.964	-401.66
668.368	-401.66
668.773	-401.66
669.178	-401.66
669.582	-401.66
669.986	-401.66
670.391	-401.66
670.795	-401.66
671.199	-401.66
671.603	-401.66
672.007	-401.66
672.411	-401.66
672.815	-401.66
673.219	-401.66
673.623	-401.66
674.027	-401.66
674.43	-401.66
674.834	-401.66
675.238	-401.66
675.641	-401.66
676.045	-401.66
676.448	-401.66
676.851	-401.66
677.254	-401.66
677.658	-401.66
678.061	-401.66
678.464	-401.66
678.867	-401.66
679.27	-401.66
679.673	-401.66
680.075	-401.66
680.478	-401.66
680.881	-401.66
681.283	-401.66
681.686	-401.66
682.088	-401.66
682.491	-401.66
682.893	-401.66
683.296	-401.66
683.698	-401.66
684.1	-401.66
684.502	-401.66
684.904	-401.66
685.306	-401.66
685.708	-401.66
686.11	-401.66
686.512	-401.66
686.913	-401.66
687.315	-401.66
687.717	-401.66
688.118	-401.66
688.52	-401.66
688.921	-401.66
689.322	-401.66
689.724	-401.66
690.125	-401.66
690.526	-401.66
690.927	-401.66
691.328	-401.66
691.729	-401.66
692.13	-401.66
692.531	-401.66
692.932	-401.66
693.332	-401.66
693.733	-401.66
694.134	-401.66
694.534	-401.66
694.935	-401.66
695.335	-401.66
695.735	-401.66
696.136	-401.66
696.536	-401.66
696.936	-401.66
697.336	-401.66
697.736	-401.66
698.136	-401.66
698.536	-401.66
698.936	-401.66
699.336	-401.66
699.735	-401.66
700.135	-401.66
700.534	-401.66
700.934	-401.66
701.333	-401.66
701.733	-401.66
702.132	-401.66
702.531	-401.66
702.931	-401.66
703.33	-401.66
703.729	-401.66
704.128	-401.66
704.527	-401.66
704.926	-401.66
705.324	-401.66
705.723	-401.66
706.122	-401.66
706.521	-401.66
706.919	-401.66
707.318	-401.66
707.716	-401.66
708.114	-401.66
708.513	-401.66
708.911	-401.66
709.309	-401.66
709.707	-401.66
710.105	-401.66
710.503	-401.66
710.901	-401.66
711.299	-401.66
711.697	-401.66
712.095	-401.66
712.492	-401.66
712.89	-401.66
713.288	-401.66
713.685	-401.66
714.082	-401.66
714.48	-401.66
714.877	-401.66
715.274	-401.66
715.672	-401.66
716.069	-401.66
716.466	-401.66
716.863	-401.66
717.26	-401.66
717.656	-401.66
718.053	-401.66
718.45	-401.66
718.847	-401.66
719.243	-401.66
719.64	-401.66
720.036	-401.66
720.433	-401.66
720.829	-401.66
721.225	-401.66
721.622	-401.66
722.018	-401.66
722.414	-401.66
722.81	-401.66
723.206	-401.66
723.602	-401.66
723.998	-401.66
724.393	-401.66
724.789	-401.66
725.185	-401.66
725.58	-401.66
725.976	-401.66
726.371	-401.66
726.767	-401.66
727.162	-401.66
727.558	-401.66
727.953	-401.66
728.348	-401.66
728.743	-401.66
729.138	-401.66
729.533	-401.66
729.928	-401.66
730.323	-401.66
730.718	-401.66
731.112	-401.66
731.507	-401.66
731.901	-401.66
732.296	-401.66
732.69	-401.66
733.085	-401.66
733.479	-401.66
733.873	-401.66
734.268	-401.66
734.662	-401.66
735.056	-401.66
735.45	-401.66
735.844	-401.66
736.238	-401.66
736.632	-401.66
737.025	-401.66
737.419	-401.66
737.813	-401.66
738.206	-401.66
738.6	-401.66
738.993	-401.66
739.387	-401.66
739.78	-401.66
740.173	-401.66
740.567	-401.66
740.96	-401.66
741.353	-401.66
741.746	-401.66
742.139	-401.66
742.532	-401.66
742.924	-401.66
743.317	-401.66
743.71	-401.66
744.103	-401.66
744.495	-401.66
744.888	-401.66
745.28	-401.66
745.672	-401.66
746.065	-401.66
746.457	-401.66
746.849	-401.66
747.241	-401.66
747.633	-401.66
748.025	-401.66
748.417	-401.66
748.809	-401.66
749.201	-401.66
749.593	-401.66
749.985	-401.66
750.376	-401.66
750.768	-401.66
751.159	-401.66
751.551	-401.66
751.942	-401.66
752.333	-401.66
752.725	-401.66
753.116	-401.66
753.507	-401.66
753.898	-401.66
754.289	-401.66
754.68	-401.66
755.071	-401.66
755.462	-401.66
755.852	-401.66
756.243	-401.66
756.634	-401.66
757.024	-401.66
757.415	-401.66
757.805	-401.66
758.196	-401.66
758.586	-401.66
758.976	-401.66
759.366	-401.66
759.756	-401.66
760.147	-401.66
760.537	-401.66
760.926	-401.66
761.316	-401.66
761.706	-401.66
762.096	-401.66
762.486	-401.66
762.875	-401.66
763.265	-401.66
763.654	-401.66
764.044	-401.66
764.433	-401.66
764.822	-401.66
765.212	-401.66
765.601	-401.66
765.99	-401.66
766.379	-401.66
766.768	-401.66
767.157	-401.66
767.546	-401.66
767.935	-401.66
768.323	-401.66
768.712	-401.66
769.101	-401.66
769.489	-401.66
769.878	-401.66
770.266	-401.66
770.654	-401.66
771.043	-401.66
771.431	-401.66
771.819	-401.66
772.207	-401.66
772.595	-401.66
772.983	-401.66
773.371	-401.66
773.759	-401.66
774.147	-401.66
774.535	-401.66
774.922	-401.66
775.31	-401.66
775.697	-401.66
776.085	-401.66
776.472	-401.66
776.86	-401.66
777.247	-401.66
777.634	-401.66
778.021	-401.66
778.408	-401.66
778.795	-401.66
779.182	-401.66
779.569	-401.66
779.956	-401.66
780.343	-401.66
780.73	-401.66
781.116	-401.66
781.503	-401.66
781.89	-401.66
782.276	-401.66
782.662	-401.66
783.049	-401.66
783.435	-401.66
783.821	-401.66
784.208	-401.66
784.594	-401.66
784.98	-401.66
785.366	-401.66
785.752	-401.66
786.137	-401.66
786.523	-401.66
786.909	-401.66
787.295	-401.66
787.68	-401.66
788.066	-401.66
788.451	-401.66
788.837	-401.66
789.222	-401.66
789.607	-401.66
789.992	-401.66
790.378	-401.66
790.763	-401.66
791.148	-401.66
791.533	-401.66
791.918	-401.66
792.303	-401.66
792.687	-401.66
793.072	-401.66
793.457	-401.66
793.841	-401.66
794.226	-401.66
794.61	-401.66
794.995	-401.66
795.379	-401.66
795.763	-401.66
796.148	-401.66
796.532	-401.66
796.916	-401.66
797.3	-401.66
797.684	-401.66
798.068	-401.66
798.452	-401.66
798.835	-401.66
799.219	-401.66
799.603	-401.66
799.986	-401.66
800.37	-401.66
800.753	-401.66
801.137	-401.66
801.52	-401.66
801.903	-401.66
802.287	-401.66
802.67	-401.66
803.053	-401.66
803.436	-401.66
803.819	-401.66
804.202	-401.66
804.585	-401.66
804.967	-401.66
805.35	-401.66
805.733	-401.66
806.115	-401.66
806.498	-401.66
806.88	-401.66
807.263	-401.66
807.645	-401.66
808.027	-401.66
808.41	-401.66
808.792	-401.66
809.174	-401.66
809.556	-401.66
809.938	-401.66
810.32	-401.66
810.702	-401.66
811.083	-401.66
811.465	-401.66
811.847	-401.66
812.228	-401.66
812.61	-401.66
812.991	-401.66
813.373	-401.66
813.754	-401.66
814.135	-401.66
814.517	-401.66
814.898	-401.66
815.279	-401.66
815.66	-401.66
816.041	-401.66
816.422	-401.66
816.803	-401.66
817.183	-401.66
817.564	-401.66
817.945	-401.66
818.325	-401.66
818.706	-401.66
819.086	-401.66
819.467	-401.66
819.847	-401.66
820.227	-401.66
820.608	-401.66
820.988	-401.66
821.368	-401.66
821.748	-401.66
822.128	-401.66
822.508	-401.66
822.888	-401.66
823.267	-401.66
823.647	-401.66
824.027	-401.66
824.406	-401.66
824.786	-401.66
825.165	-401.66
825.545	-401.66
825.924	-401.66
826.303	-401.66
826.683	-401.66
827.062	-401.66
827.441	-401.66
827.82	-401.66
828.199	-401.66
828.578	-401.66
828.957	-401.66
829.335	-401.66
829.714	-401.66
830.093	-401.66
830.471	-401.66
830.85	-401.66
831.228	-401.66
831.607	-401.66
831.985	-401.66
832.363	-401.66
832.742	-401.66
833.12	-401.66
833.498	-401.66
833.876	-401.66
834.254	-401.66
834.632	-401.66
835.01	-401.66
835.387	-401.66
835.765	-401.66
836.143	-401.66
836.52	-401.66
836.898	-401.66
837.275	-401.66
837.653	-401.66
838.03	-401.66
838.407	-401.66
838.785	-401.66
839.162	-401.66
839.539	-401.66
839.916	-401.66
840.293	-401.66
840.67	-401.66
841.047	-401.66
841.423	-401.66
841.8	-401.66
842.177	-401.66
842.553	-401.66
842.93	-401.66
843.306	-401.66
843.683	-401.66
844.059	-401.66
844.435	-401.66
844.812	-401.66
845.188	-401.66
845.564	-401.66
845.94	-401.66
846.316	-401.66
846.692	-401.66
847.068	-401.66
847.443	-401.66
847.819	-401.66
848.195	-401.66
848.57	-401.66
848.946	-401.66
849.321	-401.66
849.697	-401.66
850.072	-401.66
850.447	-401.66
850.823	-401.66
851.198	-401.66
851.573	-401.66
851.948	-401.66
852.323	-401.66
852.698	-401.66
853.073	-401.66
853.447	-401.66
853.822	-401.66
854.197	-401.66
854.571	-401.66
854.946	-401.66
855.32	-401.66
855.695	-401.66
856.069	-401.66
856.444	-401.66
856.818	-401.66
857.192	-401.66
857.566	-401.66
857.94	-401.66
858.314	-401.66
858.688	-401.66
859.062	-401.66
859.436	-401.66
859.809	-401.66
860.183	-401.66
860.557	-401.66
860.93	-401.66
861.304	-401.66
861.677	-401.66
862.05	-401.66
862.424	-401.66
862.797	-401.66
863.17	-401.66
863.543	-401.66
863.916	-401.66
864.289	-401.66
864.662	-401.66
865.035	-401.66
865.408	-401.66
865.781	-401.66
866.153	-401.66
866.526	-401.66
866.898	-401.66
867.271	-401.66
867.643	-401.66
868.016	-401.66
868.388	-401.66
868.76	-401.66
869.132	-401.66
869.504	-401.66
869.876	-401.66
870.248	-401.66
870.62	-401.66
870.992	-401.66
871.364	-401.66
871.736	-401.66
872.107	-401.66
872.479	-401.66
872.851	-401.66
873.222	-401.66
873.594	-401.66
873.965	-401.66
874.336	-401.66
874.707	-401.66
875.079	-401.66
875.45	-401.66
875.821	-401.66
876.192	-401.66
876.563	-401.66
876.934	-401.66
877.304	-401.66
877.675	-401.66
878.046	-401.66
878.416	-401.66
878.787	-401.66
879.157	-401.66
879.528	-401.66
879.898	-401.66
880.269	-401.66
880.639	-401.66
881.009	-401.66
881.379	-401.66
881.749	-401.66
882.119	-401.66
882.489	-401.66
882.859	-401.66
883.229	-401.66
883.599	-401.66
883.968	-401.66
884.338	-401.66
884.707	-401.66
885.077	-401.66
885.446	-401.66
885.816	-401.66
886.185	-401.66
886.554	-401.66
886.923	-401.66
887.293	-401.66
887.662	-401.66
888.031	-401.66
888.4	-401.66
888.769	-401.66
889.137	-401.66
889.506	-401.66
889.875	-401.66
890.243	-401.66
890.612	-401.66
890.98	-401.66
891.349	-401.66
891.717	-401.66
892.086	-401.66
892.454	-401.66
892.822	-401.66
893.19	-401.66
893.558	-401.66
893.926	-401.66
894.294	-401.66
894.662	-401.66
895.03	-401.66
895.398	-401.66
895.765	-401.66
896.133	-401.66
896.501	-401.66
896.868	-401.66
897.236	-401.66
897.603	-401.66
897.97	-401.66
898.338	-401.66
898.705	-401.66
899.072	-401.66
899.439	-401.66
899.806	-401.66
900.173	-401.66
900.54	-401.66
900.907	-401.66
901.273	-401.66
901.64	-401.66
902.007	-401.66
902.373	-401.66
902.74	-401.66
903.106	-401.66
903.473	-401.66
903.839	-401.66
904.205	-401.66
904.572	-401.66
904.938	-401.66
905.304	-401.66
905.67	-401.66
906.036	-401.66
906.402	-401.66
906.768	-401.66
907.133	-401.66
907.499	-401.66
907.865	-401.66
908.23	-401.66
908.596	-401.66
908.961	-401.66
909.327	-401.66
909.692	-401.66
910.057	-401.66
910.422	-401.66
910.788	-401.66
911.153	-401.66
911.518	-401.66
911.883	-401.66
912.248	-401.66
912.612	-401.66
912.977	-401.66
913.342	-401.66
913.707	-401.66
914.071	-401.66
914.436	-401.66
914.8	-401.66
915.165	-401.66
915.529	-401.66
915.893	-401.66
916.258	-401.66
916.622	-401.66
916.986	-401.66
917.35	-401.66
917.714	-401.66
918.078	-401.66
918.442	-401.66
918.805	-401.66
919.169	-401.66
919.533	-401.66
919.896	-401.66
920.26	-401.66
920.623	-401.66
920.987	-401.66
921.35	-401.66
921.714	-401.66
922.077	-401.66
922.44	-401.66
922.803	-401.66
923.166	-401.66
923.529	-401.66
923.892	-401.66
924.255	-401.66
924.618	-401.66
924.98	-401.66
925.343	-401.66
925.706	-401.66
926.068	-401.66
926.431	-401.66
926.793	-401.66
927.156	-401.66
927.518	-401.66
927.88	-401.66
928.242	-401.66
928.604	-401.66
928.966	-401.66
929.328	-401.66
929.69	-401.66
930.052	-401.66
930.414	-401.66
930.776	-401.66
931.138	-401.66
931.499	-401.66
931.861	-401.66
932.222	-401.66
932.584	-401.66
932.945	-401.66
933.306	-401.66
933.668	-401.66
934.029	-401.66
934.39	-401.66
934.751	-401.66
935.112	-401.66
935.473	-401.66
935.834	-401.66
936.195	-401.66
936.555	-401.66
936.916	-401.66
937.277	-401.66
937.637	-401.66
937.998	-401.66
938.358	-401.66
938.719	-401.66
939.079	-401.66
939.439	-401.66
939.8	-401.66
940.16	-401.66
940.52	-401.66
940.88	-401.66
941.24	-401.66
941.6	-401.66
941.96	-401.66
942.319	-401.66
942.679	-401.66
943.039	-401.66
943.398	-401.66
943.758	-401.66
944.117	-401.66
944.477	-401.66
944.836	-401.66
945.195	-401.66
945.554	-401.66
945.914	-401.66
946.273	-401.66
946.632	-401.66
946.991	-401.66
947.35	-401.66
947.708	-401.66
948.067	-401.66
948.426	-401.66
948.785	-401.66
949.143	-401.66
949.502	-401.66
949.86	-401.66
950.219	-401.66
950.577	-401.66
950.935	-401.66
951.294	-401.66
951.652	-401.66
952.01	-401.66
952.368	-401.66
952.726	-401.66
953.084	-401.66
953.442	-401.66
953.799	-401.66
954.157	-401.66
954.515	-401.66
954.872	-401.66
955.23	-401.66
955.588	-401.66
955.945	-401.66
956.302	-401.66
956.66	-401.66
957.017	-401.66
957.374	-401.66
957.731	-401.66
958.088	-401.66
958.445	-401.66
958.802	-401.66
959.159	-401.66
959.516	-401.66
959.873	-401.66
960.229	-401.66
960.586	-401.66
960.942	-401.66
961.299	-401.66
961.655	-401.66
962.012	-401.66
962.368	-401.66
962.724	-401.66
963.081	-401.66
963.437	-401.66
963.793	-401.66
964.149	-401.66
964.505	-401.66
964.861	-401.66
965.216	-401.66
965.572	-401.66
965.928	-401.66
966.284	-401.66
966.639	-401.66
966.995	-401.66
967.35	-401.66
967.705	-401.66
968.061	-401.66
968.416	-401.66
968.771	-401.66
969.126	-401.66
969.482	-401.66
969.837	-401.66
970.192	-401.66
970.546	-401.66
970.901	-401.66
971.256	-401.66
971.611	-401.66
971.965	-401.66
972.32	-401.66
972.675	-401.66
973.029	-363.6
973.383	-401.66
973.738	-401.66
974.092	-401.66
974.446	-401.66
974.8	-401.66
975.155	-401.66
975.509	-401.66
975.863	-401.66
976.216	-401.66
976.57	-401.66
976.924	-401.66
977.278	-401.66
977.631	-401.66
977.985	-401.66
978.339	-401.66
978.692	-368.36
979.046	-401.66
979.399	-380.25
979.752	-401.66
980.105	-382.63
980.459	-401.66
980.812	-401.66
981.165	-401.66
981.518	-401.66
981.871	-401.66
982.224	-401.66
982.576	-401.66
982.929	-401.66
983.282	-401.66
983.634	-401.66
983.987	-401.66
984.34	-392.14
984.692	-401.66
985.044	-401.66
985.397	-401.66
985.749	-365.98
986.101	-401.66
986.453	-401.66
986.805	-401.66
987.157	-401.66
987.509	-401.66
987.861	-401.66
988.213	-401.66
988.565	-401.66
988.916	-399.28
989.268	-356.47
989.62	-401.66
989.971	-401.66
990.323	-401.66
990.674	-401.66
991.025	-392.14
991.377	-401.66
991.728	-346.95
992.079	-401.66
992.43	-401.66
992.781	-401.66
993.132	-401.66
993.483	-354.09
993.834	-344.57
994.185	-401.66
994.535	-401.66
994.886	-368.36
995.237	-377.87
995.587	-392.14
995.938	-344.57
996.288	-396.9
996.638	-399.28
996.989	-380.25
997.339	-363.6
997.689	-354.09
998.039	-401.66
998.389	-389.76
998.739	-401.66
999.089	-401.66
999.439	-401.66
999.789	-382.63
1000.138	-346.95
1000.488	-351.71
1000.838	-401.66
1001.187	-401.66
1001.537	-401.66
1001.886	-373.11
1002.236	-356.47
1002.585	-387.39
1002.934	-401.66
1003.283	-401.66
1003.632	-368.36
1003.981	-401.66
1004.33	-389.76
1004.679	-401.66
1005.028	-401.66
1005.377	-401.66
1005.726	-358.84
1006.075	-332.68
1006.423	-399.28
1006.772	-375.49
1007.12	-401.66
1007.469	-313.65
1007.817	-375.49
1008.165	-375.49
1008.514	-325.55
1008.862	-344.57
1009.21	-346.95
1009.558	-392.14
1009.906	-344.57
1010.254	-363.6
1010.602	-311.28
1010.95	-373.11
1011.298	-382.63
1011.645	-330.3
1011.993	-320.79
1012.341	-401.66
1012.688	-311.28
1013.036	-344.57
1013.383	-337.44
1013.73	-327.92
1014.078	-363.6
1014.425	-399.28
1014.772	-396.9
1015.119	-363.6
1015.466	-354.09
1015.813	-354.09
1016.16	-399.28
1016.507	-346.95
1016.854	-373.11
1017.2	-325.55
1017.547	-373.11
1017.894	-299.38
1018.24	-368.36
1018.587	-401.66
1018.933	-344.57
1019.279	-325.55
1019.626	-311.28
1019.972	-346.95
1020.318	-344.57
1020.664	-330.3
1021.01	-344.57
1021.356	-266.09
1021.702	-335.06
1022.048	-330.3
1022.394	-351.71
1022.74	-344.57
1023.085	-332.68
1023.431	-254.19
1023.777	-370.74
1024.122	-370.74
1024.467	-370.74
